time,pm25,pm10,O3,NO2,SO2,CO
2022-09-29,,29,5,0,4,0
2022-09-30,45,36,5,0,4,0
2022-10-01,47,38,5,0,4,0
2022-10-02,48,37,5,0,4,0
2022-10-03,42,39,5,0,4,0
2022-10-04,47,45,5,0,4,0
2022-10-05,53,43,5,0,4,0
2022-10-06,53,39,5,0,4,0
2022-10-07,53,48,5,1,4,0
2022-10-08,65,45,5,0,4,0
2022-10-09,57,39,5,0,4,0
2022-10-10,45,32,5,0,4,0
2022-10-11,26,33,5,0,4,0
2022-10-12,32,27,5,0,4,0
2022-10-13,37,,,,,
2022-12-29,,33,5,0,4,0
2022-12-30,32,27,5,0,4,0
2022-12-31,37,24,6,0,4,0
2023-01-01,29,29,6,0,4,1
2023-01-02,47,45,5,0,4,0
2023-01-03,68,50,6,0,4,1
2023-01-04,68,42,5,0,4,0
2023-01-05,60,44,5,1,4,0
2023-01-06,59,27,5,0,4,0
2023-01-07,58,25,5,1,4,0
2023-01-08,59,18,5,0,8,2
2023-01-09,35,18,5,0,4,4
2023-01-10,18,31,5,1,5,4
2023-01-11,31,17,5,0,5,3
2023-01-12,38,14,5,0,4,3
2023-01-13,24,16,5,0,5,2
2023-01-14,21,,,,,
2023-01-21,,14,5,0,5,1
2023-01-22,26,68,5,1,4,2
2023-01-23,134,59,5,1,4,1
2023-01-24,69,76,5,1,4,1
2023-01-25,117,59,5,1,4,1
2023-01-26,93,39,5,0,4,1
2023-01-27,54,37,5,0,4,0
2023-01-28,70,60,5,1,4,0
2023-01-29,127,48,5,0,4,1
2023-01-30,95,29,5,1,4,1
2023-01-31,38,24,5,0,4,1
2023-02-01,46,14,5,0,4,1
2023-02-02,21,14,5,0,4,1
2023-02-03,41,18,5,0,4,2
2023-02-04,32,44,5,1,4,1
2023-02-05,70,26,5,0,4,1
2023-02-06,35,36,5,1,4,0
2023-02-07,43,38,5,0,7,2
2023-02-08,59,25,5,0,4,4
2023-02-09,54,45,5,1,4,3
2023-02-10,41,17,5,0,4,2
2023-02-11,20,14,5,0,4,2
2023-02-12,22,33,5,1,4,3
2023-02-13,60,68,5,2,4,2
2023-02-14,141,75,5,2,4,2
2023-02-15,151,74,5,2,4,3
2023-02-16,151,74,5,1,4,1
2023-02-17,145,75,5,1,4,1
2023-02-18,142,73,5,1,4,1
2023-02-19,154,64,5,1,4,1
2023-02-20,137,52,5,1,4,1
2023-02-21,109,59,5,1,4,1
2023-02-22,111,58,5,1,4,3
2023-02-23,96,42,5,0,4,3
2023-02-24,67,44,5,0,4,4
2023-02-25,101,65,5,1,4,3
2023-02-26,121,65,5,2,4,2
2023-02-27,145,65,5,2,4,2
2023-02-28,142,38,5,1,4,2
2023-03-01,78,28,5,0,4,1
2023-03-02,48,12,5,0,4,2
2023-03-03,17,12,5,0,4,2
2023-03-04,20,30,5,1,4,2
2023-03-05,65,77,5,1,4,2
2023-03-06,163,91,5,1,4,5
2023-03-07,177,75,5,1,4,1
2023-03-08,159,31,5,1,5,1
2023-03-09,75,28,5,0,4,1
2023-03-10,69,32,5,0,4,2
2023-03-11,78,27,5,0,4,2
2023-03-12,68,34,6,0,4,2
2023-03-13,68,28,5,0,4,2
2023-03-14,47,21,5,1,4,2
2023-03-15,31,31,6,1,4,2
2023-03-16,61,45,6,1,4,2
2023-03-17,105,55,6,1,4,2
2023-03-18,127,50,6,2,4,2
2023-03-19,98,52,5,1,4,1
2023-03-20,114,47,3,1,4,1
2023-03-21,97,51,4,1,4,2
2023-03-22,115,64,5,1,4,2
2023-03-23,147,65,5,2,4,2
2023-03-24,149,30,5,0,4,1
2023-03-25,76,18,5,1,4,2
2023-03-26,15,39,4,1,4,1
2023-03-27,,42,5,1,4,1
2023-03-27,44,23,4,1,4,1
2023-03-28,68,49,5,1,4,1
2023-03-28,24,29,5,0,4,2
2023-03-29,78,61,5,1,4,1
2023-03-29,22,35,5,1,4,1
2023-03-30,88,51,5,1,4,1
2023-03-30,31,38,5,0,4,2
2023-03-31,75,57,5,1,4,1
2023-03-31,42,37,5,0,4,2
2023-04-01,75,52,5,2,4,1
2023-04-01,52,,,,,
2023-04-02,78,69,5,1,4,1
2023-04-03,143,61,5,2,4,1
2023-04-04,127,50,5,2,4,1
2023-04-05,87,56,5,2,4,1
2023-04-06,93,56,5,2,4,1
2023-04-07,51,46,5,1,4,0
2023-04-08,46,33,5,1,4,1
2023-04-09,39,,5,1,4,1
2023-04-10,22,32,5,1,4,1
2023-04-11,36,32,5,0,4,1
2023-04-12,29,44,5,1,4,0
2023-04-13,62,51,5,1,4,0
2023-04-14,75,56,5,1,4,0
2023-04-15,98,62,5,2,4,0
2023-04-16,122,59,5,2,4,0
2023-04-17,89,50,5,1,4,0
2023-04-18,13,26,5,1,4,0
2023-04-19,49,46,5,1,4,3
2023-04-20,84,66,5,2,4,0
2023-04-21,153,58,5,2,4,1
2023-04-22,123,44,5,2,4,1
2023-04-23,80,,5,1,4,1
2023-04-24,137,50,5,2,4,2
2023-04-25,99,51,5,1,4,2
2023-04-26,86,48,5,2,4,1
2023-04-27,71,13,5,1,4,0
2023-04-28,33,31,5,1,4,1
2023-04-29,53,36,5,1,4,2
2023-04-30,36,45,5,1,4,19
2023-05-01,43,43,5,1,4,6
2023-05-02,17,43,5,1,4,0
2023-05-03,,29,5,1,4,0
2023-05-04,17,29,5,1,4,0
2023-05-05,36,36,5,1,4,0
2023-05-06,39,61,5,2,4,1
2023-05-07,92,72,5,1,4,1
2023-05-08,123,66,5,2,4,1
2023-05-09,101,54,5,1,4,1
2023-05-10,63,61,5,1,4,1
2023-05-11,86,64,5,0,4,1
2023-05-12,98,60,5,0,4,1
2023-05-13,92,55,5,0,4,2
2023-05-14,55,41,5,0,4,1
2023-05-15,49,38,5,1,4,1
2023-05-16,45,39,5,0,4,1
2023-05-17,38,63,5,0,4,1
2023-05-18,58,56,5,0,4,0
2023-05-19,67,47,5,0,4,0
2023-05-20,42,32,5,0,4,0
2023-05-21,38,36,5,0,4,0
2023-05-22,47,46,5,0,4,0
2023-05-23,75,35,5,0,4,1
2023-05-24,72,41,5,0,4,2
2023-05-25,83,49,5,0,4,1
2023-05-26,91,50,5,0,4,1
2023-05-27,90,52,5,0,4,1
2023-05-28,89,38,5,0,4,0
2023-05-29,83,60,5,0,4,0
2023-05-30,84,40,5,0,4,1
2023-05-31,85,51,5,0,4,1
2023-06-01,91,55,5,0,7,2
2023-06-02,87,52,5,0,4,1
2023-06-03,84,50,5,0,4,1
2023-06-04,86,41,5,0,5,2
2023-06-05,82,54,5,0,4,1
2023-06-06,101,50,5,0,4,1
2023-06-07,98,53,5,0,5,1
2023-06-08,98,38,5,0,5,1
2023-06-09,52,44,5,0,4,2
2023-06-10,43,34,5,0,4,1
2023-06-11,35,15,5,,5,1
2023-06-12,25,13,5,0,5,1
2023-06-13,28,20,5,0,5,1
2023-06-14,40,21,5,0,5,1
2023-06-15,41,25,5,0,5,2
2023-06-16,50,15,5,0,5,2
2023-06-17,36,18,5,0,5,2
2023-06-18,26,16,5,,5,2
2023-06-19,33,32,5,0,5,3
2023-06-20,41,41,5,0,5,2
2023-06-21,62,50,5,0,5,2
2023-06-22,77,48,5,0,5,2
2023-06-23,72,49,5,,5,1
2023-06-24,89,,,,,
2023-06-27,,22,5,0,5,2
2023-06-28,37,24,5,,5,2
2023-06-29,30,13,5,,5,2
2023-06-30,21,13,5,0,5,2
2023-07-01,,29,5,,5,2
2023-07-02,21,36,5,0,5,2
2023-07-03,34,27,5,,4,3
2023-07-04,35,36,5,0,5,3
2023-07-05,46,45,5,0,5,2
2023-07-06,54,32,5,0,5,2
2023-07-07,60,63,5,0,5,3
2023-07-08,76,41,5,,5,3
2023-07-09,72,45,5,0,5,4
2023-07-10,84,45,5,,5,4
2023-07-11,76,36,5,0,5,5
2023-07-12,63,29,5,0,5,3
2023-07-13,55,29,5,0,5,3
2023-07-14,50,29,5,0,5,3
2023-07-15,42,21,5,0,5,3
2023-07-16,50,33,5,0,5,3
2023-07-17,60,37,5,,5,2
2023-07-18,65,32,5,0,5,2
2023-07-19,56,27,5,0,5,2
2023-07-20,37,44,5,0,5,2
2023-07-21,51,37,5,0,10,2
2023-07-22,48,27,5,0,4,6
2023-07-23,16,18,5,,5,5
2023-07-24,17,19,5,0,5,6
2023-07-25,,6,5,,5,5
2023-07-26,,8,5,0,5,1
2023-07-27,9,25,5,0,5,2
2023-07-28,20,9,5,0,5,2
2023-07-29,22,15,5,0,5,3
2023-07-30,47,48,5,0,7,8
2023-07-31,82,25,5,,4,5
2023-08-01,55,29,5,0,5,9
2023-08-02,60,22,5,,5,33
2023-08-03,54,19,5,0,5,28
2023-08-04,39,18,5,0,5,14
2023-08-05,36,14,5,0,5,3
2023-08-06,32,13,5,0,5,3
2023-08-07,18,14,5,,5,2
2023-08-08,23,19,5,0,4,3
2023-08-09,21,34,5,0,4,24
2023-08-10,73,39,5,0,4,15
2023-08-11,85,41,5,,5,5
2023-08-12,65,,,,,
2023-08-17,,55,,0,,8
2023-08-18,63,31,5,0,0,8
2023-08-19,43,25,5,0,1,5
2023-08-20,37,33,6,0,2,19
2023-08-21,51,30,5,,2,26
2023-08-22,50,32,5,0,2,31
2023-08-23,59,25,5,0,2,19
2023-08-24,45,30,4,0,1,26
2023-08-25,60,23,4,0,2,17
2023-08-26,52,21,5,0,1,32
2023-08-27,52,21,5,0,1,33
2023-08-28,55,23,6,,2,10
2023-08-29,46,21,5,0,2,15
2023-08-30,48,27,5,0,1,12
2023-08-31,55,12,5,0,2,20
2023-09-01,15,25,5,0,1,12
2023-09-02,23,19,5,0,1,12
2023-09-03,20,15,7,,2,12
2023-09-04,28,,,,,
2023-09-05,,43,5,0,3,13
2023-09-06,66,22,5,,1,4
2023-09-07,36,21,5,0,2,13
2023-09-08,29,32,5,0,2,16
2023-09-09,43,31,5,0,2,15
2023-09-10,45,34,5,0,2,8
2023-09-11,49,38,5,,2,5
2023-09-12,54,34,4,0,2,3
2023-09-13,53,36,5,0,2,4
2023-09-14,58,35,5,0,2,3
2023-09-15,58,44,5,0,2,3
2023-09-16,62,46,6,0,6,3
2023-09-17,56,49,5,0,1,10
2023-09-18,60,44,4,,2,3
2023-09-19,56,25,5,0,3,2
2023-09-20,31,26,4,0,2,5
2023-09-21,29,29,5,0,2,4
2023-09-22,25,26,5,,3,26
2023-09-23,25,28,5,0,3,14
2023-09-24,26,,,,,
2023-09-25,,18,5,,3,18
2023-09-26,,16,5,0,7,3
2023-09-27,5,25,5,0,2,4
2023-09-28,15,30,5,0,3,7
2023-09-29,22,32,5,,3,3
2023-09-30,34,44,5,0,3,14
2023-10-01,24,27,5,0,3,16
2023-10-02,31,42,5,0,3,10
2023-10-03,27,33,5,0,3,5
2023-10-04,22,31,5,0,3,4
2023-10-05,31,33,5,0,3,3
2023-10-06,38,39,5,,2,15
2023-10-07,41,42,5,0,3,6
2023-10-08,14,31,5,0,3,15
2023-10-09,14,28,5,0,3,26
2023-10-10,25,59,,0,57,35
2023-10-11,37,66,4,0,2,13
2023-10-12,41,53,4,0,3,19
2023-10-13,24,40,3,,3,4
2023-10-14,24,35,5,0,3,3
2023-10-15,14,32,5,0,3,3
2023-10-16,18,34,5,0,3,3
2023-10-17,24,34,5,0,3,3
2023-10-18,39,45,6,0,3,3
2023-10-19,47,48,5,,3,3
2023-10-20,49,49,5,,3,3
2023-10-21,49,50,5,0,3,3
2023-10-22,45,51,5,0,3,3
2023-10-23,50,52,6,0,3,2
2023-10-24,46,46,5,0,3,3
2023-10-25,38,43,5,0,3,3
2023-10-26,40,43,5,0,3,3
2023-10-27,39,39,5,,3,3
2023-10-28,46,45,5,0,3,3
2023-10-29,36,35,5,,3,3
2023-10-30,48,39,5,1,11,14
2023-10-31,45,43,5,0,2,17
2023-11-01,61,49,5,0,3,5
2023-11-02,56,46,5,0,17,3
2023-11-03,38,42,,,3,2
2023-11-04,59,47,5,0,3,4
2023-11-05,,29,5,,4,4
2023-11-06,30,23,5,0,4,3
2023-11-07,21,24,5,0,3,4
2023-11-08,13,27,5,0,3,2
2023-11-09,23,21,5,0,4,2
2023-11-10,18,20,5,,4,3
2023-11-11,29,32,5,0,4,3
2023-11-12,16,37,5,0,4,3
2023-11-13,30,27,5,0,4,3
2023-11-14,23,28,5,0,3,3
2023-11-15,53,29,5,0,3,3
2023-11-16,68,47,5,0,4,3
2023-11-18,50,20,16,0,3,3
2023-11-19,28,25,5,0,3,3
2023-11-20,50,29,5,0,3,3
2023-11-21,62,35,5,0,4,3
2023-11-22,31,23,4,0,3,3
2023-11-23,41,24,5,0,3,3
2023-11-24,52,27,5,,4,3
2023-11-25,32,18,,0,4,19
2023-11-26,51,24,5,0,4,13
2023-11-27,48,34,5,,3,1
2023-11-28,48,26,5,0,3,1
2023-11-29,47,25,5,0,3,0
2023-11-30,44,24,5,0,3,1
2023-12-02,38,21,,0,3,0
2023-12-03,54,28,5,0,3,1
2023-12-04,52,29,4,0,3,1
2023-12-05,44,25,2,0,3,0
2023-12-06,30,21,3,0,3,0
2023-12-07,32,21,2,0,3,1
2023-12-08,27,15,,,4,0
2023-12-09,29,22,5,,4,3
2023-12-10,36,21,5,0,4,3
2023-12-11,40,20,6,0,4,0
2023-12-12,51,29,2,0,4,0
2023-12-13,45,23,5,0,4,0
2023-12-14,47,28,5,0,4,0
2023-12-16,56,38,5,0,3,1
2023-12-17,64,36,5,0,4,1
2023-12-18,60,39,5,0,3,0
2023-12-19,47,28,5,,4,0
2023-12-20,38,23,5,0,4,0
2023-12-21,26,21,5,,3,0
2023-12-22,30,25,5,,4,0
2023-12-27,,25,5,,4,0
2023-12-28,30,24,5,,4,1
2023-12-29,35,22,5,0,4,0
2023-12-30,25,23,5,0,3,1
2023-12-31,32,27,5,0,3,1
